two_theta,intensity
5,0
5.02,0
5.04,0
5.06,0
5.08,0
5.1,0
5.12,0
5.14,0
5.16,0
5.18,0
5.2,0
5.22,0
5.24,0
5.26,0
5.28,0
5.3,0
5.32,0
5.34,0
5.36,0
5.38,0
5.4,0
5.42,-2e-07
5.44,-4e-07
5.46,-6e-07
5.48,-7e-07
5.5,-9e-07
5.52,-1.1e-06
5.54,-1.3e-06
5.56,-1.5e-06
5.58,-1.7e-06
5.6,3.33e-05
5.62,3.41e-05
5.64,3.5e-05
5.66,3.58e-05
5.68,3.68e-05
5.7,3.78e-05
5.72,3.88e-05
5.74,3.99e-05
5.76,4.1e-05
5.78,4.22e-05
5.8,4.35e-05
5.82,4.49e-05
5.84,4.63e-05
5.86,4.78e-05
5.88,4.94e-05
5.9,5.11e-05
5.92,5.29e-05
5.94,5.48e-05
5.96,5.68e-05
5.98,5.89e-05
6,6.11e-05
6.02,6.35e-05
6.04,6.61e-05
6.06,6.88e-05
6.08,7.17e-05
6.1,7.48e-05
6.12,7.81e-05
6.14,8.16e-05
6.16,8.54e-05
6.18,8.94e-05
6.2,9.37e-05
6.22,9.83e-05
6.24,0.0001033
6.26,0.0001087
6.28,0.0001145
6.3,0.0001208
6.32,0.0001276
6.34,0.0001349
6.36,0.0001429
6.38,0.0001516
6.4,0.0001611
6.42,0.0001715
6.44,0.000183
6.46,0.0001955
6.48,0.0002094
6.5,0.0002248
6.52,0.0002419
6.54,0.0002609
6.56,0.0002822
6.58,0.0003061
6.6,0.0003332
6.62,0.0003639
6.64,0.0003989
6.66,0.0004392
6.68,0.0004856
6.7,0.0005397
6.72,0.0006031
6.74,0.0006781
6.76,0.0007676
6.78,0.0008757
6.8,0.0010077
6.82,0.0011713
6.84,0.001377
6.86,0.0016404
6.88,0.0019848
6.9,0.0024473
6.92,0.0030919
6.94,0.0040416
6.96,0.0055412
6.98,0.0080444
7,0.0122494
7.02,0.0189121
7.04,0.0279567
7.06,0.0357676
7.08,0.0350869
7.1,0.0267029
7.12,0.0178801
7.14,0.0115709
7.16,0.0076354
7.18,0.0052989
7.2,0.0038921
7.22,0.002993
7.24,0.0023774
7.26,0.0019333
7.28,0.0016012
7.3,0.0013465
7.32,0.001147
7.34,0.0009881
7.36,0.0008595
7.38,0.0007541
7.4,0.0006666
7.42,0.0005932
7.44,0.0005311
7.46,0.0004781
7.48,0.0004324
7.5,0.0003929
7.52,0.0003584
7.54,0.0003281
7.56,0.0003015
7.58,0.0002778
7.6,0.0002568
7.62,0.0002379
7.64,0.000221
7.66,0.0002058
7.68,0.0001921
7.7,0.0001807
7.72,0.0001694
7.74,0.0001591
7.76,0.0001496
7.78,0.000141
7.8,0.000133
7.82,0.0001257
7.84,0.000119
7.86,0.0001127
7.88,0.000107
7.9,0.0001016
7.92,9.66e-05
7.94,9.2e-05
7.96,8.77e-05
7.98,8.37e-05
8,7.99e-05
8.02,7.64e-05
8.04,7.31e-05
8.06,7.01e-05
8.08,6.72e-05
8.1,6.45e-05
8.12,6.19e-05
8.14,5.95e-05
8.16,5.73e-05
8.18,5.52e-05
8.2,5.32e-05
8.22,5.13e-05
8.24,4.96e-05
8.26,4.79e-05
8.28,4.64e-05
8.3,4.49e-05
8.32,4.35e-05
8.34,4.22e-05
8.36,4.1e-05
8.38,3.99e-05
8.4,3.89e-05
8.42,3.79e-05
8.44,3.7e-05
8.46,3.61e-05
8.48,3.54e-05
8.5,3.47e-05
8.52,3.41e-05
8.54,3.35e-05
8.56,-1.1e-06
8.58,-6e-07
8.6,0
8.62,-4e-07
8.64,-7e-07
8.66,-9e-07
8.68,-1.1e-06
8.7,-1.1e-06
8.72,-1e-06
8.74,-8e-07
8.76,-5e-07
8.78,1e-07
8.8,9e-07
8.82,2e-06
8.84,3.4e-06
8.86,5.4e-06
8.88,7.9e-06
8.9,1.11e-05
8.92,1.54e-05
8.94,2.09e-05
8.96,2.83e-05
8.98,3.82e-05
9,5.18e-05
9.02,7.1e-05
9.04,9.96e-05
9.06,0.0001451
9.08,0.0002215
9.1,0.0003506
9.12,0.000557
9.14,0.0008421
9.16,0.0011015
9.18,0.0011017
9.2,0.0008415
9.22,0.0005542
9.24,0.0003454
9.26,0.000214
9.28,0.0001355
9.3,8.8e-05
9.32,5.75e-05
9.34,3.64e-05
9.36,2.1e-05
9.38,9.2e-06
9.4,0
9.42,-8.2e-06
9.44,-1.5e-05
9.46,-2.09e-05
9.48,-2.6e-05
9.5,-3.05e-05
9.52,-3.45e-05
9.54,-3.82e-05
9.56,-4.16e-05
9.58,5.18e-05
9.6,5.15e-05
9.62,5.16e-05
9.64,5.19e-05
9.66,5.25e-05
9.68,5.33e-05
9.7,5.43e-05
9.72,5.56e-05
9.74,5.71e-05
9.76,5.88e-05
9.78,6.07e-05
9.8,6.29e-05
9.82,6.54e-05
9.84,6.82e-05
9.86,7.14e-05
9.88,7.47e-05
9.9,7.83e-05
9.92,8.22e-05
9.94,8.65e-05
9.96,9.11e-05
9.98,9.61e-05
10,0.0001015
10.02,0.0001074
10.04,0.0001137
10.06,0.0001206
10.08,0.000128
10.1,0.0001361
10.12,0.0001447
10.14,0.0001541
10.16,0.0001643
10.18,0.0001753
10.2,0.0001872
10.22,0.0002002
10.24,0.0002143
10.26,0.0002297
10.28,0.0002464
10.3,0.0002646
10.32,0.0002845
10.34,0.0003063
10.36,0.0003302
10.38,0.0003564
10.4,0.0004005
10.42,0.0004329
10.44,0.0004687
10.46,0.0005085
10.48,0.0005527
10.5,0.000602
10.52,0.0006574
10.54,0.0007196
10.56,0.0007899
10.58,0.0008698
10.6,0.000961
10.62,0.0010657
10.64,0.0011866
10.66,0.0013261
10.68,0.0014908
10.7,0.0016855
10.72,0.0019176
10.74,0.0021972
10.76,0.0025382
10.78,0.0029594
10.8,0.0034876
10.82,0.0041618
10.84,0.0050397
10.86,0.0062121
10.88,0.0078331
10.9,0.0101932
10.92,0.0138716
10.94,0.0199662
10.96,0.0302397
10.98,0.0467829
11,0.0701738
11.02,0.0931852
11.04,0.0965038
11.06,0.0762983
11.08,0.0518336
11.1,0.0335701
11.12,0.0219852
11.14,0.0150816
11.16,0.0109577
11.18,0.0083612
11.2,0.006613
11.22,0.0053749
11.24,0.0044744
11.26,0.0038139
11.28,0.0033239
11.3,0.0029262
11.32,0.0025493
11.34,0.0022013
11.36,0.0019118
11.38,0.0016813
11.4,0.0014985
11.42,0.0013524
11.44,0.0012344
11.46,0.0011389
11.48,0.0010623
11.5,0.0010026
11.52,0.0009585
11.54,0.0009295
11.56,0.0009162
11.58,0.0009197
11.6,0.0009426
11.62,0.0009889
11.64,0.0010648
11.66,0.0011804
11.68,0.0013522
11.7,0.0016095
11.72,0.0020101
11.74,0.0026687
11.76,0.0037929
11.78,0.0056886
11.8,0.0086524
11.82,0.0125006
11.84,0.0153327
11.86,0.0142894
11.88,0.0105448
11.9,0.0070068
11.92,0.004549
11.94,0.0030325
11.96,0.0021298
11.98,0.0015781
12,0.0012181
12.02,0.0009665
12.04,0.0007817
12.06,0.0006411
12.08,0.0005314
12.1,0.000444
12.12,0.0003731
12.14,0.0003817
12.16,0.0003347
12.18,0.0002954
12.2,0.0002621
12.22,0.0002338
12.24,0.0002095
12.26,0.0001885
12.28,0.0001704
12.3,0.0001547
12.32,0.0001411
12.34,0.0001293
12.36,0.0001192
12.38,0.0001104
12.4,0.0001029
12.42,9.66e-05
12.44,9.14e-05
12.46,8.72e-05
12.48,8.4e-05
12.5,8.16e-05
12.52,-1.18e-05
12.54,-1e-05
12.56,-7.4e-06
12.58,-4.1e-06
12.6,0
12.62,-5.2e-06
12.64,-9.6e-06
12.66,-1.31e-05
12.68,6e-06
12.7,4.9e-06
12.72,0.000187
12.74,0.0001934
12.76,0.0002012
12.78,0.0002105
12.8,0.0002218
12.82,0.0002352
12.84,0.0002508
12.86,0.0002689
12.88,0.0002898
12.9,0.0003138
12.92,0.0003413
12.94,0.0003729
12.96,0.0004093
12.98,0.0004511
13,0.0004995
13.02,0.0005558
13.04,0.0006214
13.06,0.0006984
13.08,0.0007895
13.1,0.0008983
13.12,0.00103
13.14,0.0011916
13.16,0.0013938
13.18,0.0016534
13.2,0.0019991
13.22,0.0024863
13.24,0.0032215
13.26,0.004393
13.28,0.0062698
13.3,0.0090955
13.32,0.0126215
13.34,0.0151028
13.36,0.014306
13.38,0.0116251
13.4,0.0094204
13.42,0.0083758
13.44,0.0084571
13.46,0.0096387
13.48,0.0122032
13.5,0.0169239
13.52,0.0250842
13.54,0.0379673
13.56,0.0549317
13.58,0.067987
13.6,0.0642317
13.62,0.047991
13.64,0.0322584
13.66,0.0213387
13.68,0.0146513
13.7,0.0107521
13.72,0.0084648
13.74,0.0070711
13.76,0.0061981
13.78,0.0056623
13.8,0.0053703
13.82,0.0052726
13.84,0.005344
13.86,0.0055766
13.88,0.005977
13.9,0.0065663
13.92,0.0073823
13.94,0.0084859
13.96,0.0099733
13.98,0.0119888
14,0.0147798
14.02,0.0187915
14.04,0.0248947
14.06,0.0348762
14.08,0.0515496
14.1,0.0791331
14.12,0.120922
14.14,0.171681
14.16,0.2033656
14.18,0.1838446
14.2,0.1335112
14.22,0.0879096
14.24,0.0568345
14.26,0.0378023
14.28,0.0265022
14.3,0.0195948
14.32,0.0150872
14.34,0.0119468
14.36,0.0096527
14.38,0.0079221
14.4,0.0065851
14.42,0.0055327
14.44,0.0046903
14.46,0.0040063
14.48,0.0034442
14.5,0.0029774
14.52,0.0025864
14.54,0.0022565
14.56,0.0019766
14.58,0.0017383
14.6,0.0015351
14.62,0.0013627
14.64,0.0012165
14.66,0.0010937
14.68,0.0009925
14.7,0.0009117
14.72,0.000851
14.74,0.0008111
14.76,0.0008183
14.78,0.0008278
14.8,0.0008696
14.82,0.0009422
14.84,0.0010878
14.86,0.0013292
14.88,0.0017375
14.9,0.0024447
14.92,0.0036545
14.94,0.0055879
14.96,0.0082247
14.98,0.0105148
15,0.0103379
15.02,0.0079134
15.04,0.0053633
15.06,0.0034916
15.08,0.0023943
15.1,0.0017739
15.12,0.00144
15.14,0.001272
15.16,0.0012075
15.18,0.0012182
15.2,0.0012928
15.22,0.0014299
15.24,0.0016329
15.26,0.0019128
15.28,0.0022884
15.3,0.0027908
15.32,0.0034707
15.34,0.0044106
15.36,0.0057402
15.38,0.0076567
15.4,0.0104449
15.42,0.01447
15.44,0.0204472
15.46,0.0301708
15.48,0.045753
15.5,0.0667644
15.52,0.0837443
15.54,0.0799921
15.56,0.0596813
15.58,0.0394491
15.6,0.0252282
15.62,0.0163955
15.64,0.0109945
15.66,0.0078402
15.68,0.0058148
15.7,0.0044251
15.72,0.0034235
15.74,0.0026784
15.76,0.0021122
15.78,0.0016755
15.8,0.0013354
15.82,0.0010705
15.84,0.0008644
15.86,0.0007066
15.88,0.0006521
15.9,0.0005744
15.92,0.0005307
15.94,0.0005217
15.96,0.00055
15.98,0.0006211
16,0.0007446
16.02,0.0009375
16.04,0.0012259
16.06,0.0016593
16.08,0.0023352
16.1,0.0034475
16.12,0.005343
16.14,0.0085217
16.16,0.0134396
16.18,0.0196702
16.2,0.0238776
16.22,0.0217079
16.24,0.0156103
16.26,0.0100601
16.28,0.0062823
16.3,0.0039815
16.32,0.0026345
16.34,0.0018351
16.36,0.0013433
16.38,0.0010404
16.4,0.0008779
16.42,0.0008514
16.44,0.0009906
16.46,0.0013524
16.48,0.0019737
16.5,0.0027718
16.52,0.0032082
16.54,0.0027707
16.56,0.0019181
16.58,0.0012137
16.6,0.0007555
16.62,0.0005032
16.64,0.0003865
16.66,0.0003555
16.68,0.0003832
16.7,0.0004853
16.72,0.0006089
16.74,0.0007856
16.76,0.0010279
16.78,0.0013568
16.8,0.001808
16.82,0.0024456
16.84,0.0033928
16.86,0.004896
16.88,0.0074029
16.9,0.0115754
16.92,0.0180751
16.94,0.0265622
16.96,0.0331461
16.98,0.0312723
17,0.0232409
17.02,0.0156149
17.04,0.0103926
17.06,0.0072819
17.08,0.0055803
17.1,0.0047249
17.12,0.0043856
17.14,0.0044135
17.16,0.0047714
17.18,0.0055029
17.2,0.006752
17.22,0.0088461
17.24,0.0124354
17.26,0.0186074
17.28,0.0287306
17.3,0.0434618
17.32,0.0591308
17.34,0.0636983
17.36,0.0519747
17.38,0.0357239
17.4,0.023068
17.42,0.0149028
17.44,0.0100089
17.46,0.0070965
17.48,0.0052813
17.5,0.0040714
17.52,0.0032188
17.54,0.0025955
17.56,0.0021296
17.58,0.0017764
17.6,0.0015065
17.62,0.0013007
17.64,0.0011447
17.66,0.001029
17.68,0.0009235
17.7,0.000871
17.72,0.0008446
17.74,0.0008426
17.76,0.0008646
17.78,0.0009112
17.8,0.0009845
17.82,0.0010882
17.84,0.0012277
17.86,0.0014112
17.88,0.0016519
17.9,0.0019711
17.92,0.0024065
17.94,0.0030294
17.96,0.0039697
17.98,0.005431
18,0.0076746
18.02,0.0108221
18.04,0.0142457
18.06,0.016215
18.08,0.0168352
18.1,0.0186867
18.12,0.0232025
18.14,0.0292551
18.16,0.031891
18.18,0.0278322
18.2,0.0215771
18.22,0.0170552
18.24,0.0149466
18.26,0.0150193
18.28,0.0172246
18.3,0.0221791
18.32,0.0314104
18.34,0.04718
18.36,0.0711839
18.38,0.0995403
18.4,0.1137312
18.42,0.0979854
18.44,0.0691648
18.46,0.0451368
18.48,0.0292272
18.5,0.0195885
18.52,0.0138558
18.54,0.0103093
18.56,0.0079596
18.58,0.0063022
18.6,0.0050815
18.62,0.0041544
18.64,0.0034346
18.66,0.002865
18.68,0.0024201
18.7,0.0020474
18.72,0.0017399
18.74,0.0014837
18.76,0.0012681
18.78,0.0010853
18.8,0.0008677
18.82,0.0007345
18.84,0.0006203
18.86,0.0005213
18.88,0.0004351
18.9,0.0004124
18.92,0.000348
18.94,0.0002918
18.96,0.0002428
18.98,0.0002
19,0.0001627
19.02,0.0001304
19.04,0.0001024
19.06,7.85e-05
19.08,5.81e-05
19.1,4.12e-05
19.12,2.73e-05
19.14,1.64e-05
19.16,8.3e-06
19.18,2.8e-06
19.2,0
19.22,-1.49e-05
19.24,-2.72e-05
19.26,-3.66e-05
19.28,-4.32e-05
19.3,-4.66e-05
19.32,-4.66e-05
19.34,-4.26e-05
19.36,-3.41e-05
19.38,-2.03e-05
19.4,0
19.42,-3.67e-05
19.44,-6.32e-05
19.46,-7.65e-05
19.48,-7.2e-05
19.5,-4.29e-05
19.52,2.25e-05
19.54,0.0001357
19.56,0.0003658
19.58,0.0007652
19.6,0.0014729
19.62,0.0031451
19.64,0.004901
19.66,0.0068043
19.68,0.00746
19.7,0.0062632
19.72,0.0046571
19.74,0.0036868
19.76,0.0035483
19.78,0.0041626
19.8,0.005136
19.82,0.005395
19.84,0.0043339
19.86,0.0030977
19.88,0.0019901
19.9,0.0013077
19.92,0.0009515
19.94,0.0008191
19.96,0.0008497
19.98,0.0010291
20,0.0013834
20.02,0.0019802
20.04,0.0029109
20.06,0.0042952
20.08,0.0063956
20.1,0.0094612
20.12,0.0128134
20.14,0.0139916
20.16,0.011921
20.18,0.0090674
20.2,0.0071557
20.22,0.0064559
20.24,0.0068942
20.26,0.0085734
20.28,0.0119938
20.3,0.0180998
20.32,0.0279636
20.34,0.041407
20.36,0.0529148
20.38,0.0516876
20.4,0.039154
20.42,0.0261197
20.44,0.0168742
20.46,0.0111779
20.48,0.007875
20.5,0.0059745
20.52,0.0048552
20.54,0.0041899
20.56,0.0038172
20.58,0.0036545
20.6,0.003657
20.62,0.003804
20.64,0.0040795
20.66,0.0044806
20.68,0.005012
20.7,0.0057088
20.72,0.0065437
20.74,0.0075672
20.76,0.0088865
20.78,0.0104188
20.8,0.0123038
20.82,0.0146468
20.84,0.0175862
20.86,0.021328
20.88,0.0261796
20.9,0.0326209
20.92,0.0414599
20.94,0.0541869
20.96,0.0737133
20.98,0.1055215
21,0.1585304
21.02,0.2431826
21.04,0.3639815
21.06,0.4949149
21.08,0.5398483
21.1,0.4492978
21.12,0.3171077
21.14,0.2145182
21.16,0.150821
21.18,0.1169596
21.2,0.1039114
21.22,0.1076086
21.24,0.1295005
21.26,0.1750004
21.28,0.245855
21.3,0.3236808
21.32,0.3464448
21.34,0.2848794
21.36,0.1986423
21.38,0.1308715
21.4,0.0867297
21.42,0.0599408
21.44,0.0437312
21.46,0.0334263
21.48,0.0264078
21.5,0.0213824
21.52,0.0175889
21.54,0.0149196
21.56,0.0126401
21.58,0.0109256
21.6,0.0094624
21.62,0.0082968
21.64,0.0073535
21.66,0.006591
21.68,0.0059788
21.7,0.0054942
21.72,0.0051203
21.74,0.0048445
21.76,0.0046581
21.78,0.0045549
21.8,0.0045316
21.82,0.0045926
21.84,0.0047334
21.86,0.0049067
21.88,0.0052218
21.9,0.0056361
21.92,0.0061636
21.94,0.0068237
21.96,0.0076445
21.98,0.0086656
22,0.0099461
22.02,0.011584
22.04,0.0137301
22.06,0.0166698
22.08,0.0209263
22.1,0.0273931
22.12,0.0373744
22.14,0.0527374
22.16,0.0713566
22.18,0.0895161
22.2,0.1028079
22.22,0.1024958
22.24,0.0875586
22.26,0.0717158
22.28,0.0623111
22.3,0.0596486
22.32,0.0625468
22.34,0.070303
22.36,0.0832912
22.38,0.1033719
22.4,0.1345428
22.42,0.1842939
22.44,0.2645357
22.46,0.3885885
22.48,0.5646015
22.5,0.7914376
22.52,0.9919903
22.54,0.9794675
22.56,0.7620698
22.58,0.5317605
22.6,0.3734483
22.62,0.2885507
22.64,0.2630904
22.66,0.2877005
22.68,0.3561161
22.7,0.4429415
22.72,0.4713709
22.74,0.3954508
22.76,0.2856403
22.78,0.1987716
22.8,0.143286
22.82,0.1113944
22.84,0.0950245
22.86,0.0891375
22.88,0.0922694
22.9,0.1062961
22.92,0.1361291
22.94,0.1881492
22.96,0.2637833
22.98,0.3451372
23,0.3838819
23.02,0.3433201
23.04,0.256929
23.06,0.1752406
23.08,0.1176691
23.1,0.0816748
23.12,0.0599753
23.14,0.046634
23.16,0.0379938
23.18,0.032108
23.2,0.0279733
23.22,0.025067
23.24,0.0230808
23.26,0.0218332
23.28,0.02122
23.3,0.021193
23.32,0.0217494
23.34,0.0229312
23.36,0.0248301
23.38,0.0276069
23.4,0.031497
23.42,0.0368935
23.44,0.0444127
23.46,0.0551278
23.48,0.0710843
23.5,0.0963758
23.52,0.1387067
23.54,0.2102626
23.56,0.3250538
23.58,0.4852189
23.6,0.6359669
23.62,0.6454701
23.64,0.5026157
23.66,0.3391456
23.68,0.2193829
23.7,0.1440021
23.72,0.0996106
23.74,0.0737616
23.76,0.0585868
23.78,0.0499047
23.8,0.0450444
23.82,0.0406165
23.84,0.0340872
23.86,0.0271176
23.88,0.021595
23.9,0.0177828
23.92,0.0154364
23.94,0.0143845
23.96,0.0146161
23.98,0.0167205
24,0.019962
24.02,0.0220904
24.04,0.0217266
24.06,0.0184054
24.08,0.0156464
24.1,0.0153015
24.12,0.0181384
24.14,0.0247164
24.16,0.0346519
24.18,0.0430235
24.2,0.0417508
24.22,0.031221
24.24,0.0201948
24.26,0.012267
24.28,0.0072716
24.3,0.0042688
24.32,0.0024503
24.34,0.0013209
24.36,0.0006307
24.38,0.0003191
24.4,0.0002926
24.42,0.0004871
24.44,0.0005621
24.46,-0.0001471
24.48,-0.0008999
24.5,-0.0014195
24.52,-0.0016964
24.54,-0.0017236
24.56,-0.0014805
24.58,-0.0009149
24.6,0
24.62,0.0010388
24.64,0.0014673
24.66,0.0008555
24.68,-1.53e-05
24.7,-0.000575
24.72,-0.0007085
24.74,-0.0004062
24.76,0.0003652
24.78,0.0016313
24.8,0.0031617
24.82,0.0040423
24.84,0.0035853
24.86,0.0026511
24.88,0.0020709
24.9,0.0020139
24.92,0.0024445
24.94,0.003305
24.96,0.0046416
24.98,0.0066024
25,0.0094979
25.02,0.0139004
25.04,0.0207369
25.06,0.0314348
25.08,0.0481955
25.1,0.0715337
25.12,0.0961872
25.14,0.1014121
25.16,0.0820361
25.18,0.0576904
25.2,0.0398609
25.22,0.0293671
25.24,0.0243878
25.26,0.0229691
25.28,0.0241759
25.3,0.0278748
25.32,0.0347788
25.34,0.0468645
25.36,0.0679647
25.38,0.1038896
25.4,0.1604957
25.42,0.2351361
25.44,0.2938854
25.46,0.2795551
25.48,0.208083
25.5,0.1374424
25.52,0.0879309
25.54,0.0573399
25.56,0.0392601
25.58,0.0284236
25.6,0.0215508
25.62,0.0169597
25.64,0.0138168
25.66,0.0117089
25.68,0.0104078
25.7,0.0099896
25.72,0.0106168
25.74,0.0127508
25.76,0.0170443
25.78,0.023904
25.8,0.0318631
25.82,0.0352267
25.84,0.0303199
25.86,0.0226733
25.88,0.0170771
25.9,0.0138869
25.92,0.0115196
25.94,0.0092323
25.96,0.0076538
25.98,0.0072176
26,0.0081684
26.02,0.0108493
26.04,0.0156541
26.06,0.0221865
26.08,0.02709
26.1,0.025298
26.12,0.0188953
26.14,0.0128068
26.16,0.0087158
26.18,0.0063714
26.2,0.0052305
26.22,0.0048326
26.24,0.0049653
26.26,0.0055833
26.28,0.0067799
26.3,0.0087663
26.32,0.011721
26.34,0.0154567
26.36,0.0186059
26.38,0.0198042
26.4,0.020578
26.42,0.0230683
26.44,0.0286397
26.46,0.0390934
26.48,0.0575441
26.5,0.0882705
26.52,0.1342634
26.54,0.1875659
26.56,0.2130302
26.58,0.1842238
26.6,0.1347105
26.62,0.0968146
26.64,0.0776662
26.66,0.0754721
26.68,0.0863368
26.7,0.1004108
26.72,0.0987089
26.74,0.0778683
26.76,0.0547537
26.78,0.0381895
26.8,0.0285955
26.82,0.0244274
26.84,0.0240282
26.86,0.0249983
26.88,0.0235534
26.9,0.0189826
26.92,0.0140862
26.94,0.0111219
26.96,0.0100344
26.98,0.010756
27,0.0130501
27.02,0.0156975
27.04,0.0157623
27.06,0.0124701
27.08,0.0085901
27.1,0.0056795
27.12,0.0038036
27.14,0.0026942
27.16,0.0020675
27.18,0.0017391
27.2,0.0016158
27.22,0.0016732
27.24,0.0019057
27.26,0.0023773
27.28,0.0031803
27.3,0.0045649
27.32,0.0067399
27.34,0.0097596
27.36,0.0128502
27.38,0.0144761
27.4,0.0151379
27.42,0.0164003
27.44,0.0176453
27.46,0.0179077
27.48,0.0189241
27.5,0.0230517
27.52,0.0321933
27.54,0.048057
27.56,0.0703488
27.58,0.0903936
27.6,0.0911813
27.62,0.0747828
27.64,0.0559593
27.66,0.0393909
27.68,0.0269473
27.7,0.0192592
27.72,0.0153205
27.74,0.0137605
27.76,0.012859
27.78,0.0109925
27.8,0.0083656
27.82,0.0060063
27.84,0.0041792
27.86,0.0028371
27.88,0.0019061
27.9,0.0012717
27.92,0.0008235
27.94,0.0005273
27.96,0.0002922
27.98,0.0001211
28,0
28.02,-0.0003071
28.04,-0.0003703
28.06,-0.0003988
28.08,-0.0003925
28.1,-0.0003486
28.12,-0.0002212
28.14,-5.16e-05
28.16,0.0001772
28.18,0.0005468
28.2,0.0010473
28.22,0.0019745
28.24,0.0033483
28.26,0.005035
28.28,0.0061982
28.3,0.0059589
28.32,0.0050676
28.34,0.0045284
28.36,0.0046695
28.38,0.0054506
28.4,0.0070086
28.42,0.0096739
28.44,0.0141657
28.46,0.0216973
28.48,0.0337414
28.5,0.0506488
28.52,0.0687822
28.54,0.079579
28.56,0.0734194
28.58,0.0550171
28.6,0.0376884
28.62,0.026429
28.64,0.0204826
28.66,0.0171761
28.68,0.0137229
28.7,0.0099614
28.72,0.0069201
28.74,0.0048118
28.76,0.0034375
28.78,0.0025674
28.8,0.0020513
28.82,0.0017892
28.84,0.0017893
28.86,0.0021136
28.88,0.0028842
28.9,0.0041641
28.92,0.005727
28.94,0.0068979
28.96,0.0071551
28.98,0.0060861
29,0.0042544
29.02,0.0026488
29.04,0.0015758
29.06,0.0009503
29.08,0.0005453
29.1,0.0003995
29.12,0.0003979
29.14,0.0005029
29.16,0.0007196
29.18,0.0010779
29.2,0.0016467
29.22,0.0024644
29.24,0.0035984
29.26,0.0048673
29.28,0.0061568
29.3,0.0079178
29.32,0.0107849
29.34,0.0148237
29.36,0.0196698
29.38,0.0256365
29.4,0.0311718
29.42,0.0311879
29.44,0.0258418
29.46,0.0207079
29.48,0.0185274
29.5,0.0200269
29.52,0.0258714
29.54,0.0369783
29.56,0.0531534
29.58,0.068478
29.6,0.0703998
29.62,0.0583889
29.64,0.0434226
29.66,0.0309317
29.68,0.0226234
29.7,0.0184165
29.72,0.0176723
